3503.1,0.5144287602820232
3506.3291160402737,0.5144287602820232
3509.5612086414226,0.5138178068063374
3512.7962805472052,0.5135488482060163
3516.0343345039096,0.518864967774307
3519.275373260354,0.5222134231382096
3522.5193995678924,0.5264252803058295
3525.7664161804123,0.5314550961199712
3529.0164258543437,0.4966751969703346
3532.269431348653,0.49111316125315296
3535.525435424853,0.48414972872637985
3538.784440847002,0.45543870409450093
3542.046450381702,0.43637045545315123
3545.3114667981113,0.46087442106312376
3548.579492867937,0.40581454969341524
3551.850531365441,0.39923737358101635
3555.124585067444,0.4865630796111539
3558.4016567533263,0.48192538368923893
3561.681749205029,0.4771497400787581
3564.9648652070587,0.7252575235507992
3568.251007546487,0.5371180808024492
3571.540179012957,0.5375445936801805
3574.832382398682,0.5460820764081601
3578.1276204984497,0.5421848159609324
3581.425896109622,0.542173551972381
3584.7272120321427,0.5418812442127584
3588.031571068533,0.5473161318268052
3591.3389760238997,0.540946539810112
3594.6494297059357,0.5397973662351598
3597.962934924921,0.538345479814023
3601.2794944937245,0.5086366024476658
3604.5991112278107,0.5483146100468498
3607.92178794524,0.5953204406708078
3611.247527466666,0.5960506285196769
3614.5763326153456,0.5957139775542822
3617.908206217139,0.5404025552184655
3621.2431511005097,0.44610712757656534
3624.581170096528,0.4409779193245002
3627.9222660388737,0.37282118532921527
3631.2664417638416,0.24414538774837283
3634.6137001103366,0.1541057302512543
3637.9640439198843,0.14224957864976906
3641.317476036627,0.13087093759617988
3644.67399930733,0.18778111175725282
3648.0336165813824,0.2995080025032577
3651.3963307107997,0.2604699805917686
3654.762144550226,0.25427218012193203
3658.131060956938,0.24752554310757782
3661.5030827908454,0.2778067372528427
3664.8782129144943,0.40322464163330274
3668.256454193068,0.26798633264768146
3671.6378094943934,0.334598669773972
3675.022281688939,0.2186949095148901
3678.4098736498217,0.2674358758954966
3681.800588252803,0.49959389844999214
3685.1944283762987,0.5919124163525218
3688.591396901376,0.49063625731821126
3691.9914967117584,0.8345171990041782
3695.3947306938276,0.9053990208898485
3698.801101736626,0.9565404851556285
3702.210612731859,0.9518938945699061
3705.623266573897,0.8925824407368156
3709.0390661597803,0.8136810262146078
3712.4580143892167,0.8091337709468068
3715.880114164589,0.8382042535392188
3719.3053683909557,0.5537765515915616
3722.733779976051,0.7015295997852334
3726.1653518302915,0.41661828152489816
3729.600086866776,0.5416293830614334
3733.037988001288,0.5382376868699307
3736.4790581522993,0.5172776086895008
3739.923300240971,0.5139435569092234
3743.3707171911587,0.5096276614012025
3746.821311929412,0.5139483770971254
3750.2750873849773,0.6745725114017094
3753.7320464898035,0.6702146042216178
3757.192192178539,0.49442951547651226
3760.65552738854,0.43748649701288206
3764.12205505987,0.5014636311555881
3767.5917781353014,0.4972554473114473
3771.0646995603197,0.4268334280789118
3774.540822283125,0.29622952490674254
3778.0201492546366,0.0
3781.5026834284927,0.28897499966986856
3784.9884277610554,0.47920778133611924
3788.4773852114085,0.5749830650214166
3791.9695587413685,0.6371276299841274
3795.464951315478,0.6971008881770522
3798.9635659010137,0.7194187521061264
3802.465405467988,0.8866038512257429
3805.97047298915,0.7539384530988325
3809.47877143999,0.8790739955161859
3812.990303798741,0.8022828562315174
3816.5050730463804,0.7990891300218157
3820.0230821666346,0.7948659558059112
3823.544334145978,0.7359742749406595
3827.0688319736423,0.7945862339290218
3830.5965786416104,0.7843722817049215
3834.1275771446244,0.9188004649210706
3837.661830480189,0.8777180322599248
3841.1993416485684,0.8735200473484047
3844.7401136527956,0.775443227534591
3848.2841494986696,0.8381190650282667
3851.8314521947605,0.7682464099915796
3855.3820247524136,0.7318429023914171
3858.9358701857477,0.7277543599489347
3862.4929915116604,0.4801643510916084
3866.053391749831,0.6900893386516529
3869.6170739227223,0.6870566822081712
3873.184041055582,0.45249493584992173
3876.754296176448,0.4485692781868067
3880.3278423161482,0.44558349146557724
3883.904682508305,0.44161920743657374
3887.4848197893375,0.43865214731274965
3891.068257198461,0.42955228988663974
3894.6549977776967,0.42568102448822354
3898.245044571867,0.24102367441687247
3901.8384006286014,0.21174513513643067
3905.4350689983385,0.16264134166530586
3909.0350527343294,0.024217043001211042
3912.6383548926406,0.02145362221303341
3916.244978532152,0.017800236388669264
3919.8549267145677,0.14818493385143147
3923.4682025044117,0.14536288465977606
3927.0848089690317,0.11217127674101665
3930.7047491786057,0.21468859171438293
3934.3280262061394,0.33248503091452647
3937.9546431274725,0.2712787245084121
3941.584603021279,0.25659095791805875
3945.217908969072,0.2657014799307222
3948.8545640552034,0.3302723923278563
3952.494571366871,0.3275065757407442
3956.137933994114,0.25655893769871907
3959.784655029824,0.2567556277700651
3963.434737569742,0.23735169821562213
3967.088184712463,0.28385191753877664
3970.744999559437,0.2811341530369076
3974.405185214975,0.27751074390145186
3978.068744786248,0.22563187759745307
3981.7356813832916,0.274174758574138
3985.405998119007,0.2685518105719351
3989.079698109167,0.2658468597193167
3992.756784472416,0.3088175653543799
3996.4372603302704,0.24752540980464974
4000.121128807129,0.24397223474749208
4003.8083930302655,0.2576016365119084
4007.4990561298387,0.2328862687994052
4011.1931212388945,0.23604518743400715
4014.8905914933625,0.232528559122162
4018.5914700320677,0.18130588220467883
4022.295759996724,0.22151264740398252
4026.0034645319442,0.20606669055468638
4029.71458678524,0.20298438479554132
4033.4291299070223,0.17007218968315066
4037.1470970506066,0.19751243085088355
4040.868491372217,0.19489737885108732
4044.5933160309837,0.2272850535779859
4048.3215741889526,0.22476512909330332
4052.0532690110817,0.2334436253777321
4055.788403665247,0.2890803019396538
4059.5269813222462,0.38058939204804065
4063.2690051557975,0.28398358623631
4067.014478342545,0.3641502485363086
4070.763404062063,0.4645074490913989
4074.515785496854,0.4845545041475405
4078.2716258323558,0.5556621083014232
4082.0309282569424,0.5157395290313405
4085.793695961926,0.5506193957488371
4089.5599321415616,0.5786996021358025
4093.3296399930477,0.5761458711498808
4097.10282271653,0.5879209137826956
4100.879483515104,0.604829333974563
4104.659625594819,0.6023551913499849
4108.443252164678,0.6786160752158737
4112.230366436643,0.6760815544769194
4116.020971625636,0.6850112090115248
4119.815070949543,0.6917726921084691
4123.612667629218,0.7596856504251005
4127.413764888479,0.8194827502797735
4131.21836595412,0.8618249365020356
4135.026474055909,0.8593342602303012
4138.838092426589,0.811041430182086
4142.653224301886,0.807458028689307
4146.471872920505,0.6190336407763682
4150.29404152414,0.5997123625614961
4154.119733357471,0.597331049606853
4157.948951668168,0.5816352129558083
4161.781699706897,0.5605841265524131
4165.617980727319,0.5768215316449774
4169.457797986095,0.6122402666344996
4173.301154742889,0.609413590699354
4177.148054260366,0.4875034877840923
4180.998499804202,0.3471001169420083
4184.852494643082,0.3367354027631934
4188.710042048702,0.4259563534062819
4192.571145295779,0.33004178708771414
4196.435807662046,0.3233122290186929
4200.304032428253,0.3529782433986865
4204.17582287818,0.6771875793789952
4208.051182298633,0.7095226256567072
4211.930113979445,0.7072272395423469
4215.812621213485,0.7263723038660695
4219.698707296654,0.7393823791394857
4223.588375527894,0.7678994740303868
4227.4816292091855,0.7656226110693563
4231.378471645554,0.7384854284954476
4235.278906145071,0.7609963587850319
4239.182936018859,0.8124412964562889
4243.090564581091,0.831317311701746
4247.001795148995,0.8780810148847497
4250.916631042856,0.8688582317287215
4254.835075586024,0.8966594640506139
4258.757132104905,0.8587973039816108
4262.6828039289785,0.862020062890333
4266.612094390789,0.898025709154025
4270.545006825953,0.8644510946043367
4274.481544573164,0.7672901368590147
4278.42171097419,0.8459279884856225
4282.365509373883,0.8704538561262564
4286.312943120175,0.8839323149321381
4290.264015564086,0.8560060860840578
4294.2187300597225,0.8665306517523105
4298.177089964287,0.880815327608635
4302.139098638074,0.8807879315798595
4306.104759444475,0.9569341239948661
4310.074075749982,0.9546739412953457
4314.047050924191,0.960922341636776
4318.023688339805,0.9623900503586538
4322.003991372633,0.8882242099504134
4325.987963401599,0.8860938476905315
4329.975607808739,0.9475202331322272
4333.966927979208,0.8550328260348496
4337.961927301281,0.7987368522149259
4341.960609166357,0.8178388728270796
4345.962976968959,0.8156866172404657
4349.969034106742,0.8285571600370493
4353.97878398049,0.7686580886616634
4357.992229994125,0.7584897580109177
4362.009375554704,0.7367315256331677
4366.030224072425,0.776512406493297
4370.054778960631,0.7740536150037821
4374.083043635809,0.7723303782078716
4378.1150215175985,0.770264413061082
4382.150716028787,0.7833266485811049
4386.1901305953215,0.8026664611202324
4390.233268646304,0.7775048912161733
4394.280133613998,0.7668268740615196
4398.330728933832,0.7451101843456774
4402.3850580444005,0.7222856539389754
4406.443124387466,0.6969579751355761
4410.504931407966,0.6428801695469081
4414.570482554012,0.6105843517870057
4418.639781276897,0.6002901082659922
4422.71283103109,0.5529259675879835
4426.789635274249,0.5508995372712145
4430.870197467215,0.5256161687116754
4434.954521074024,0.5422611697785431
4439.042609561902,0.5342717182662396
4443.134466401272,0.5323284692997247
4447.2300950657545,0.5128305546195739
4451.329499032176,0.5117625097358263
4455.43268178056,0.5004358521738487
4459.539646794148,0.48254902901565555
4463.650397559385,0.4107149196744674
4467.764937565931,0.41090878709969375
4471.8832703066655,0.40901898253765895
4476.005399277686,0.4599313488243637
4480.131327978312,0.4426295604639397
4484.261059911088,0.40297247465747355
4488.394598581789,0.44088591127172383
4492.531947499421,0.41732840193853954
4496.673110176226,0.3982532012767472
4500.81809012768,0.3574489406972863
4504.9668908725025,0.3556358329639111
4509.119515932655,0.2910990940999937
4513.275968833345,0.29009236277052197
4517.436253103034,0.22984161796538274
4521.600372273428,0.26814221007810185
4525.7683298794955,0.2880075164713306
4529.940129459462,0.28024373169000333
4534.115774554811,0.19849936538015797
4538.295268710294,0.28345894519357306
4542.47861547393,0.3056758046982313
4546.665818397006,0.3177542620166645
4550.856881034085,0.355172640989105
4555.051806943005,0.36729029877612623
4559.250599684885,0.4287517763776578
4563.453262824125,0.48131919786907895
4567.659799928411,0.4988306566477465
4571.870214568719,0.5029948363124166
4576.084510319316,0.5209140543207159
4580.302690757762,0.5631857521935141
4584.524759464917,0.5809091667681997
4588.750720024942,0.5754820003596108
4592.980576025298,0.5861528423243285
4597.214331056759,0.6004516405824287
4601.451988713404,0.6010279443095838
4605.6935525926265,0.5702298130339276
4609.939026295137,0.5019699065743114
4614.188413424963,0.48194427656751354
4618.441717589457,0.4367447710834721
4622.698942399293,0.4225998140103221
4626.960091468477,0.3987534992372114
4631.225168414345,0.3979355355312029
4635.494176857566,0.3839001386740756
4639.767120422147,0.3669939697424057
4644.044002735439,0.4082631190346358
4648.324827428132,0.40740863843131037
4652.609598134264,0.4265588391091793
4656.898318491224,0.4459036539976792
4661.190992139754,0.4682516438580243
4665.487622723951,0.471561455514961
4669.78821389127,0.4679169247271179
4674.092769292532,0.515764558329448
4678.401292581918,0.5482447347524741
4682.713787416983,0.546542751120143
4687.0302574586485,0.5818767196009986
4691.350706371214,0.5602503673914145
4695.675137822356,0.5963339802357811
4700.00355548313,0.5955432846661142
4704.335963027977,0.5969020299510521
4708.672364134726,0.6297932527546163
4713.0127624845945,0.6369914876588578
4717.357161762192,0.6601522795807028
4721.7055656555285,0.7015764759571126
4726.057977856011,0.6999644343657805
4730.414402058449,0.7011603597403565
4734.774841961058,0.7284991788688431
4739.1393012654635,0.7296722451208973
4743.507783676701,0.7539688232614687
4747.8802929032245,0.7523760388692606
4752.256832656904,0.7653104356030205
4756.637406653032,0.8114668527741586
4761.022018610324,0.8260033800384832
4765.410672250926,0.8091991983890573
4769.803371300412,0.7462077846527818
4774.200119487796,0.7327398030624342
4778.60092054552,0.7232998476954274
4783.005778209475,0.7226527242408616
4787.4146962189925,0.6966955679587961
4791.827678316849,0.6740168382641506
4796.244728249276,0.6800481224365588
4800.665849765952,0.7264749167964678
4805.091046620017,0.7249440097405191
4809.520322568068,0.7171384540653191
4813.953681370165,0.7235877618683839
4818.391126789837,0.7517095003440304
4822.832662594075,0.7622747365011329
4827.278292553351,0.7234736574896548
4831.7280204416065,0.7651364475379232
4836.181850036266,0.7833099390816713
4840.639785118231,0.7629839594551412
4845.101829471894,0.7623376151673458
4849.56798688513,0.7617512268125038
4854.03826114931,0.7917632225272219
4858.512656059299,0.7007539530240391
4862.991175413458,0.6953651274645233
4867.473823013652,0.6962479341955398
4871.960602665248,0.6941577175609777
4876.451518177123,0.6713999058736346
4880.946573361663,0.619613050002589
4885.445772034771,0.596954757052835
4889.949118015863,0.5317479758492637
4894.4566151278805,0.5278055917956628
4898.968267197286,0.49626447463102447
4903.484078054071,0.4873088208448427
4908.004051531753,0.5285196383015628
4912.528191467391,0.5296688640330858
4917.056501701573,0.5570785495546031
4921.588986078433,0.5583085664755663
4926.125648445645,0.5824607959551528
4930.666492654432,0.5696817229378768
4935.211522559565,0.5539429753243482
4939.76074201937,0.553432627190921
4944.314154895728,0.5511915243111448
4948.871765054081,0.5523474814054391
4953.433576363434,0.5500858938153657
4957.999592696358,0.561637318208716
4962.569817928995,0.5703387237534264
4967.144255941056,0.5597001338726594
4971.722910615835,0.5806045791704829
4976.305785840198,0.5649408218723472
4980.892885504599,0.5543251595181443
4985.484213503077,0.5538245292737336
4990.0797737332605,0.5477449493842708
4994.67957009637,0.5472500951832987
4999.2836064972225,0.53906305917499
5003.891886844234,0.5036574269065678
5008.504415049427,0.5346164171756521
5013.121195028421,0.5375516790990849
5017.742230700455,0.5667926681054413
5022.367525988377,0.5205140712251977
5026.997084818647,0.5638239246486982
5031.63091112135,0.5782232775420775
5036.269008830191,0.581245941585303
5040.911381882501,0.5778641683087544
5045.558034219242,0.5618649701690286
5050.208969785006,0.5787741880112652
5054.864192528024,0.5451030212061095
5059.523706400166,0.5438438430654641
5064.187515356943,0.49975543062369737
5068.855623357512,0.45754815386063086
5073.528034364681,0.4935304604773802
5078.204752344912,0.4594249882949997
5082.885781268321,0.45305677938282396
5087.571125108683,0.4527809953766965
5092.260787843439,0.4523161094259549
5096.9547734536945,0.4165169062945739
5101.653085924222,0.38724957703364676
5106.355729243474,0.38279279989496157
5111.062707403575,0.3823079123502094
5115.774024400326,0.3394817784058919
5120.489684233219,0.3226057176621859
5125.209690905428,0.3100859854397209
5129.934048423817,0.31677731452572894
5134.662760798947,0.31132552486777265
5139.395832045069,0.3274453909204997
5144.133266180142,0.3211185543009119
5148.875067225825,0.34617725321496784
5153.621239207482,0.34938180434772803
5158.371786154192,0.3726680034855135
5163.126712098747,0.3929346218390593
5167.886021077652,0.43112295501577486
5172.6497171311385,0.4175703730296733
5177.417804303161,0.45701867643631866
5182.190286641397,0.4377333518704987
5186.9671681972595,0.4342269910896662
5191.748453025897,0.43379486567878967
5196.534145186193,0.44487212862485465
5201.324248740774,0.4436868974510541
5206.11876775601,0.44323831015262777
5210.9177063020215,0.45467256851852944
5215.721068452679,0.4704275709729239
5220.528858285608,0.4420847975721267
5225.341079882195,0.42174019289677345
5230.157737327587,0.4714358718224603
5234.978834710694,0.4370997257276842
5239.8043761242025,0.4329235429700422
5244.634365664564,0.4393583811301251
5249.46880743201,0.43895797081762505
5254.30770553055,0.4333333276890402
5259.151064067978,0.43821499302774486
5263.9988871558735,0.44100677296909546
5268.851178909606,0.44066636231925616
5273.707943448338,0.42969570723646405
5278.569184895031,0.4463228669819851
5283.434907376444,0.43837049377368453
5288.305115023144,0.4260175852717631
5293.179811969501,0.38634208390406044
5298.0590023537,0.4260517631813156
5302.942690317736,0.42773520540961146
5307.830880007427,0.41468920430357364
5312.7235755724105,0.4351983891372005
5317.620781166148,0.44889814169232833
5322.522500945932,0.4485356251246773
5327.428739072882,0.448224998261663
5332.339499711962,0.46500267873046297
5337.254787031966,0.49887729348283916
5342.174605205536,0.5012830043515325
5347.098958409159,0.5017078921318305
5352.027850823173,0.5014141573784556
5356.961286631767,0.4819866179534542
5361.899270022989,0.48258058870231446
5366.841805188747,0.481331753798357
5371.788896324811,0.4633091478196343
5376.740547630822,0.4766347128002823
5381.69676331029,0.46748214873978444
5386.657547570601,0.4655157818544946
5391.622904623018,0.4581374957428216
5396.592838682688,0.44729689252555105
5401.5673539686395,0.4292459353209097
5406.546454703795,0.45874952271662583
5411.530145114964,0.4471758747662506
5416.518429432859,0.410457720047208
5421.511311892086,0.40070405355136046
5426.508796731159,0.4274123683594194
5431.510888192498,0.4398033769759443
5436.5175905224305,0.4307742165085879
5441.5289079712,0.401044284927803
5446.54484479297,0.36551653117707616
5451.565405245824,0.3491455021764944
5456.59059359177,0.3277333915798844
5461.620414096745,0.3015924173357223
5466.654871030616,0.27048287318547376
5471.693968667191,0.3107070058204994
5476.737711284214,0.3407916580683928
5481.786103163374,0.3412894290965673
5486.839148590303,0.35315846774894916
5491.896851854587,0.34223394221721803
5496.959217249767,0.3719167571256997
5502.0262490733385,0.35196983919459407
5507.09795162676,0.35172238715873094
5512.174329215454,0.36200725675267426
5517.255386148815,0.38623114123197216
5522.341126740206,0.36606085506468716
5527.431555306967,0.3902116147479788
5532.52667617042,0.4373722289814182
5537.6264936558655,0.45032012414902167
5542.731012092596,0.43339263664608746
5547.840235813892,0.42050161767632876
5552.954169157028,0.3140651863334265
5558.072816463281,0.2971399612959511
5563.1961820779225,0.3423241956433251
5568.324270350236,0.30503850479844186
5573.4570856335085,0.37654748419947265
5578.594632285045,0.3979092638923632
5583.736914666164,0.4083616367773077
5588.883937142205,0.4147459242448843
5594.035704082531,0.4340311787874321
5599.1922198605325,0.4338463374623766
5604.353488853632,0.4584604036181173
5609.519515443288,0.4461123008768654
5614.690304014995,0.42957079847743185
5619.865858958292,0.41087954510286145
5625.046184666766,0.41135532633886296
5630.231285538047,0.41137103111576473
5635.421165973828,0.4319737559969492
5640.615830379853,0.43712704865292507
5645.815283165928,0.4511847768973908
5651.019528745928,0.44581707457529574
5656.22857153779,0.42294464740111376
5661.44241596353,0.433187987986612
5666.661066449236,0.4343296617197465
5671.884527425076,0.4348192015399975
5677.112803325304,0.4353328454090444
5682.345898588261,0.43514744699428676
5687.583817656377,0.40788716486370175
5692.826564976178,0.3771463567337569
5698.074144998291,0.35279171923065494
5703.326562177442,0.35326618435752083
5708.583820972465,0.3543407933984957
5713.845925846305,0.36015276533828805
5719.112881266021,0.3606313346811957
5724.384691702787,0.36103633081936143
5729.661361631899,0.3786103527999197
5734.942895532783,0.4018893756536273
5740.229297888988,0.459897935746854
5745.520573188198,0.46149556306095185
5750.8167259222355,0.4620018014627728
5756.117760587061,0.4425499625584488
5761.423681682781,0.45722607218042316
5766.7344937136495,0.4628756769626916
5772.050201188073,0.4672738025294511
5777.3708086186125,0.4805793255038527
5782.696320521989,0.5041368500584132
5788.026741419089,0.5107891117179428
5793.362075834964,0.5108218988210729
5798.7023282988375,0.5433155175384474
5804.047503344107,0.5418240545817704
5809.397605508349,0.5361474750302038
5814.752639333326,0.5571914378294761
5820.112609364984,0.586142540764059
5825.477520153457,0.5667925700316434
5830.8473762530775,0.5709369684664785
5836.2221822223755,0.5714759865113312
5841.601942624082,0.5684772849013724
5846.986662025133,0.5621844057781555
5852.376344996677,0.5733372963256561
5857.770996114072,0.575291510280359
5863.170619956898,0.5766129263628685
5868.575221108953,0.5669460064218534
5873.984804158263,0.5543176356454854
5879.3993736970815,0.5258228864248436
5884.818934321894,0.5263533021242915
5890.243490633426,0.4860111506024264
5895.673047236641,0.45833881734239573
5901.107608740749,0.4566739233289203
5906.54717975921,0.4634985742169781
5911.991764909732,0.4623269847986504
5917.441368814284,0.5019514522545625
5922.895996099094,0.5278106445713705
5928.355651394655,0.536665932428547
5933.820339335726,0.5425143680030329
5939.290064561342,0.5351354699797933
5944.76483171481,0.5253500634809274
5950.24464544372,0.5030867415247504
5955.729510399947,0.5129283209338154
5961.21943123965,0.5091395101540331
5966.714412623285,0.4933048509854199
5972.214459215599,0.5109656856664925
5977.719575685642,0.5213071018042023
5983.229766706768,0.5610115558120162
5988.745036956637,0.5745114190360628
5994.265391117222,0.5775330830951085
5999.790833874814,0.5869142491157447
6005.321369920018,0.5762042353245496
6010.857003947766,0.5593700834022715
6016.397740657321,0.5450269532930556
6021.943584752272,0.5354526503219024
6027.494540940548,0.5461616777938625
6033.050613934415,0.5593864016254061
6038.611808450484,0.5724710682260902
6044.178129209713,0.5885619258553556
6049.749580937412,0.5852281657906473
6055.326168363248,0.5663354866617276
6060.907896221246,0.5658595594254626
6066.494769249795,0.5613693024333363
6072.086792191653,0.5475599034004619
6077.683969793949,0.5490076994212056
6083.286306808187,0.5487199437565623
6088.893807990253,0.5341051826006672
6094.506478100414,0.5386275366858737
6100.124321903327,0.5358731554865456
6105.747344168042,0.5259064496201376
6111.375549668003,0.5475612323651429
6117.008943181055,0.550972693160459
6122.647529489446,0.5554762167997164
6128.291313379834,0.5694169832725154
6133.940299643288,0.5792881102148955
6139.594493075294,0.5918099709239937
6145.253898475758,0.6235907702369871
6150.918520649012,0.6421105114887322
6156.588364403814,0.637234001619062
6162.263434553356,0.6358504531977013
6167.943735915266,0.631044131411709
6173.629273311615,0.6075185418345436
6179.320051568917,0.5788002229338107
6185.016075518137,0.5594541026212532
6190.717349994688,0.5606843374939351
6196.423879838447,0.5608789523452347
6202.135669893747,0.56045574795211
6207.852725009389,0.5432317424694175
6213.575050038646,0.46729528300511647
6219.302649839258,0.44719313561547114
6225.035529273449,0.44833305615595587
6230.773693207922,0.5363170770307719
6236.5171465138665,0.5648677716288162
6242.2658940669635,0.5696030140517416
6248.019940747386,0.5825240069856847
6253.779291439805,0.5830605491246551
6259.5439510334,0.5848171291188636
6265.313924421851,0.6086632655523567
6271.089216503351,0.6134026335827307
6276.869832180609,0.6323166653630695
6282.65577636085,0.6328583127797871
6288.447053955828,0.6162883934713055
6294.24366988182,0.6085858007503994
6300.045629059636,0.5746099750263125
6305.852936414623,0.5556038297696266
6311.665596876667,0.5654210737811205
6317.483615380197,0.5715957875790346
6323.306996864195,0.5671575011412642
6329.135746272191,0.5733111704565533
6334.9698685522735,0.5623554719160844
6340.809368657095,0.5455058546556154
6346.654251543865,0.5160848785436487
6352.504522174373,0.5050771270832977
6358.360185514976,0.5261728704527582
6364.22124653661,0.4864002841185032
6370.087710214794,0.49547439472483745
6375.959581529632,0.5260300459634032
6381.836865465818,0.5133471838510878
6387.719567012643,0.4886187260666859
6393.607691163999,0.4702184406895853
6399.501242918375,0.444457132911559
6405.400227278874,0.42320678397469397
6411.304649253206,0.4280590770646906
6417.214513853697,0.4103938150051456
6423.1298260973,0.4115030772550776
6429.0505910055845,0.40304263997375395
6434.976813604754,0.39642539012430755
6440.908498925642,0.401938782224573
6446.845652003721,0.38841637513489014
6452.788277879104,0.3853433934553377
6458.736381596552,0.3857895106991886
6464.689968205474,0.35527573495834786
6470.649042759935,0.3217518373383588
6476.613610318656,0.3228125596561665
6482.583675945027,0.3415311522324267
6488.559244707098,0.3505343055226338
6494.540321677595,0.376255841775922
6500.526911933921,0.3869746119844336
6506.519020558157,0.3667937351822862
6512.516652637067,0.38913289631244163
6518.519813262108,0.388134784404799
6524.528507529428,0.38640084721158
6530.542740539871,0.3992690189231426
6536.562517398989,0.41017775954368924
6542.587843217032,0.416101980381061
6548.618723108966,0.42042640757490024
6554.65516219447,0.43388803427258765
6560.697165597943,0.4327811988361532
6566.744738448508,0.4429447037501128
6572.797885880014,0.45856094236653505
6578.856613031044,0.47323897898915124
6584.920925044918,0.4803600515910627
6590.990827069695,0.4911940091984343
6597.066324258181,0.48248186489833994
6603.147421767934,0.5130741524910535
6609.234124761262,0.5206326863535826
6615.326438405232,0.5332992180557078
6621.424367871677,0.5486150072519393
6627.527918337194,0.5496806245637804
6633.637094983155,0.5507434615111791
6639.751902995706,0.5576244407212707
6645.872347565773,0.5640504119360059
6651.998433889068,0.5509775184559956
6658.130167166094,0.5242903782333902
6664.267552602145,0.5220864275520897
6670.410595407314,0.5226910964728546
6676.559300796494,0.5184753384479229
6682.713673989393,0.547375627468186
6688.873720210522,0.5651988802734005
6695.039444689211,0.5815095903350936
6701.210852659614,0.582546941685387
6707.387949360701,0.5784527634923662
6713.570740036281,0.5878884775779821
6719.759229934988,0.5926263882393622
6725.953424310303,0.5998281601465858
6732.153328420541,0.6186718543232038
6738.35894752887,0.6058425319770246
6744.570286903307,0.5967151435398357
6750.787351816724,0.6008329910310268
6757.010147546857,0.5835479738945143
6763.238679376304,0.5756419860442965
6769.472952592535,0.5660216174320402
6775.71297248789,0.5653257738089321
6781.958744359589,0.5609615990710431
6788.210273509739,0.5626619290089678
6794.467565245328,0.5667252231619241
6800.73062487824,0.5597702878266234
6806.999457725255,0.5564296426494537
6813.274069108053,0.5677291001234882
6819.554464353218,0.5680305353356254
6825.840648792247,0.5834673445741412
6832.132627761551,0.6121879625948479
6838.43040660246,0.6093989279345748
6844.733990661222,0.6107450914353387
6851.043385289025,0.6235882057420475
6857.358595841978,0.6128859164959902
6863.679627681133,0.5315604090287934
6870.006486172481,0.6517993869329153
6876.339176686965,0.5673351937288795
6882.677704600472,0.5235266431053538
6889.022075293846,0.5471737120435826
6895.372294152895,0.5431929860790563
6901.728366568386,0.5338000270321266
6908.090297936062,0.5180422685096052
6914.45809365663,0.5112154476458514
6920.831759135785,0.4956115233618517
6927.2112997842005,0.4964681602354514
6933.596721017537,0.4830498504349123
6939.988028256448,0.4845597879975301
6946.3852269265835,0.48359757538980275
6952.788322458595,0.4862769938725002
6959.19732028814,0.5151795498792815
6965.612225855887,0.5365394965048452
6972.033044607519,0.5584982857875482
6978.459781993737,0.559356246812285
6984.89244347027,0.5447288086557354
6991.331034497874,0.4954020192456322
6997.775560542337,0.48369824154870983
7004.22602707449,0.474995323017792
7010.682439570202,0.4785534810726107
7017.144803510394,0.4823508719893354
7023.613124381034,0.5065262603431482
7030.087407673152,0.4962264685359913
7036.5676588828355,0.522984299655327
7043.053883511243,0.5377736968923126
7049.546087064598,0.5309398413829872
7056.044275054204,0.5350624602151396
7062.548452996445,0.5361533754724566
7069.058626412785,0.5268455871597315
7075.574800829783,0.5005809831337502
7082.096981779091,0.49155841682413165
7088.625174797457,0.49921695610516026
7095.159385426737,0.505178112254519
7101.69961921389,0.5090336746429077
7108.2458817109955,0.5158109731668017
7114.798178475246,0.5253255772751012
7121.356515068957,0.48089767257144844
7127.92089705957,0.5050999294571628
7134.491330019662,0.4875345750402911
7141.067819526946,0.4893403286172077
7147.650371164271,0.5176464717433973
7154.238990519641,0.5468386109425212
7160.833683186206,0.5481584645557124
7167.43445476227,0.5707518230933605
7174.041310851301,0.5757703734658839
7180.65425706193,0.4571697186730028
7187.27329900796,0.4473615889486958
7193.89844230837,0.36715447013898767
7200.529692587311,0.328384978690042
7207.167055474126,0.345556803253308
7213.810536603344,0.41893321886616697
7220.460141614689,0.5409301670539254
7227.115876153083,0.576550958353437
7233.7777458686505,0.6076645847067912
7240.445756416726,0.5764149322754564
7247.119913457855,0.45665502015735465
7253.800222657801,0.44037095745649163
7260.486689687555,0.5214663016599539
7267.1793202233275,0.4544641606684563
7273.878119946567,0.5399434319254758
7280.583094543957,0.571579846058832
7287.294249707424,0.47128108884041175
7294.011591134137,0.522279800521902
7300.735124526526,0.4566381106998085
7307.464855592268,0.46725299253342595
7314.200790044306,0.46840353271091517
7320.942933600846,0.49647018502840046
7327.6912919853685,0.5137235966946776
7334.445870926626,0.5439918580998061
7341.206676158659,0.5396391640153805
7347.9737134207835,0.5439664629974599
7354.746988457613,0.5307457957361369
7361.526507019055,0.5296207083990051
7368.3122748603155,0.5230376978535083
7375.104297741905,0.5100806569003592
7381.902581429649,0.5194706899607318
7388.70713169468,0.5114739748713792
7395.517954313458,0.5210829107881899
7402.335055067764,0.5221615999960231
7409.158439744708,0.5176357612550796
7415.988114136734,0.5273709928219878
7422.82408404163,0.547134314173968
7429.666355262524,0.5549991949896741
7436.514933607893,0.5457885854154524
7443.36982489157,0.5250627517647102
7450.231034932747,0.5188961855902641
7457.09856955598,0.5066113913780644
7463.9724345911945,0.5053968589151256
7470.852635873687,0.5063981254327518
7477.739179244136,0.4815663548281283
7484.632070548604,0.4784784587993941
7491.531315638541,0.4684138835527251
7498.436920370791,0.43747433180269135
7505.348890607595,0.4162822530080633
7512.267232216603,0.3250558201606733
7519.191951070867,0.2640048391236179
7526.123053048859,0.3110673836240863
7533.060544034464,0.3692199276066763
7540.004429916997,0.39597967052825
7546.954716591194,0.4012917940894595
7553.911409957232,0.42410579026173556
7560.874515920721,0.4383361487954367
7567.844040392721,0.43272050968154424
7574.819989289733,0.4608091252339669
7581.802368533717,0.489230699976736
7588.791184052092,0.9990107121957522
7595.786441777737,1.0
7602.788147649007,0.2649074174610774
7609.79630760972,0.2656912175503107
7616.810927609184,0.2664848973855495
7623.832013602183,0.3185144926653397
7630.8595715489955,0.3235235173441188
7637.893607415389,0.2786847077050911
7644.934127172637,0.27479835832207583
7651.98113679751,0.3190242712515317
7659.0346422722905,0.3467652825560763
7666.0946495847775,0.44410583737505616
7673.161164728289,0.4602245014513485
7680.2341937016645,0.44814828303605186
7687.3137425092755,0.4476433298761799
7694.399817161028,0.4604123916308828
7701.492423672367,0.5187021891379389
7708.591568064286,0.5472991096946003
7715.6972563633235,0.5629642594581495
7722.809494601575,0.5634646591042947
7729.928288816699,0.5231403555212283
7737.053645051915,0.5392071723437881
7744.1855693560165,0.5429476906738085
7751.32406778337,0.5621887238884363
7758.469146393927,0.5544187741399094
7765.620811253221,0.5487945150844774
7772.779068432377,0.5419192389831525
7779.943924008118,0.5488795235136645
7787.1153840627685,0.5558389738338888
7794.29345468426,0.5564506646883612
7801.47814196613,0.5871270271480552
7808.6694520075425,0.5946696108490438
7815.867390913275,0.6083607521330059
7823.071964793738,0.604993091325877
7830.283179764972,0.5846369439501006
7837.501041948659,0.5901563119001872
7844.725557472115,0.5929889234392154
7851.956732468313,0.596329281886244
7859.194573075874,0.6011416259371946
7866.439085439082,0.5972823556276481
7873.6902757078815,0.5978776159990675
7880.948150037886,0.5897410865534619
7888.212714590382,0.5658861242941038
7895.483975532342,0.5635353022085053
7902.761939036414,0.579059540112806
7910.046611280943,0.6125717356777629
7917.337998449966,0.6080665588681168
7924.636106733219,0.6050095339407234
7931.940942326148,0.5831047140155932
7939.252511429905,0.5945062056227987
7946.57082025136,0.595492834313512
7953.895875003109,0.6069877483228314
7961.227681903466,0.6146162081144632
7968.566247176483,0.6415409141955744
7975.911577051948,0.6488598851804499
7983.263677765391,0.6451916014601123
7990.622555558092,0.6267758185904541
7997.98821667708,0.6120071961274851
8005.360667375146,0.5779287055366008
8012.739913910844,0.558410240481838
8020.125962548493,0.5340353204321754
8027.518819558194,0.5355452176555119
8034.918491215822,0.5359653315309618
8042.324983803038,0.5473248641616144
8049.738303607296,0.5707029106339956
8057.158456921842,0.5811759454636696
8064.585450045724,0.5856074090892107
8072.0192892838,0.5737178632453878
8079.4599809467345,0.5600432631199126
8086.907531351013,0.5269235683117083
8094.361946818941,0.49895077317417963
8101.823233678652,0.5184690559497559
8109.291398264116,0.5296342565731099
8116.766446915137,0.5769449287561971
8124.248385977365,0.6111549474634068
8131.737221802298,0.6251121451846327
8139.232960747295,0.6497820547724857
8146.7356091755655,0.6831417021002226
8154.24517345619,0.6201888758205221
8161.761659964123,0.6976340120971906
8169.285075080186,0.5615991952572208
8176.815425191091,0.4943020893897704
8184.352716689434,0.5597442837271194
8191.8969559737025,0.5152310738084515
8199.448149448284,0.5787389357065472
8207.006303523469,0.6453093099342916
8214.571424615455,0.7073105218478174
8222.143519146357,0.6634427357234871
8229.722593544207,0.5069903426197839
8237.308654242965,0.4308526078889216
8244.90170768252,0.508006879085614
8252.501760308696,0.5872173194266411
8260.108818573262,0.7012586827437619
8267.722888933931,0.6687358964386053
8275.343977854372,0.702249455521063
8282.972091804211,0.6436645331238685
8290.607237259032,0.6649268793391725
8298.249420700397,0.6180394336598695
8305.898648615837,0.5990382029870137
8313.554927498864,0.5908070775133304
8321.218263848978,0.5911799935309746
8328.888664171667,0.5700111563963848
8336.56613497842,0.5771948129240396
8344.250682786724,0.5449298698211389
8351.94231412007,0.5055450807394062
8359.641035507975,0.4835657153843029
8367.346853485964,0.45120227752687575
8375.05977459559,0.484138042496315
8382.779805384433,0.4656786298838373
8390.506952406113,0.4910837977122615
8398.241222220291,0.4922799908997792
8405.98262139267,0.5182296647304725
8413.731156495009,0.5312160183985848
8421.486834105124,0.507657668146424
8429.249660806892,0.5083493235393223
8437.019643190262,0.508568693585499
8444.796787851257,0.5202013356792469
8452.58110139198,0.5136907333939406
8460.372590420617,0.5420894176670054
8468.17126155145,0.541555236806351
8475.977121404854,0.5754000821141099
8483.79017660731,0.5483898556878571
8491.610433791406,0.5862196051801991
8499.43789959584,0.5850393048894862
8507.272580665434,0.578615774496244
8515.114483651136,0.5554802001829602
8522.96361521002,0.5332514398593152
8530.8199820053,0.5432356726598708
8538.68359070633,0.5696721981665347
8546.554447988616,0.5449217649877689
8554.43256053381,0.5484543481428727
8562.317935029734,0.5448447212645271
8570.21057817036,0.5381925858822749
8578.110496655843,0.538630588925358
8586.017697192508,0.540473994607476
8593.932186492866,0.527432228593829
8601.85397127561,0.5373943168314306
8609.78305826563,0.5293113237990733
8617.719454194013,0.5336648047073985
8625.663165798056,0.49344078435077027
8633.614199821259,0.4834904419148345
8641.572563013338,0.47665197467421627
8649.53826213024,0.48262734932642687
8657.51130393413,0.4829425862129595
8665.491695193412,0.4855710262948041
8673.479442682725,0.5096920772270451
8681.474553182952,0.5003608854911743
8689.477033481235,0.501109435619185
8697.486890370965,0.5076294486959825
8705.504130651792,0.5085641313934016
8713.528761129643,0.5079238794106494
8721.560788616713,0.4974292830425799
8729.600219931475,0.4978099377948776
8737.647061898693,0.5083297716271118
8745.701321349416,0.5107421044554967
8753.763005120994,0.5007124590246003
8761.832120057077,0.5152315115215618
8769.908673007625,0.5113280927747562
8777.99267082891,0.49282161772467614
8786.084120383528,0.4761059975657658
8794.183028540396,0.4669372725454718
8802.289402174769,0.4733808344277592
8810.40324816823,0.4978348966622374
8818.524573408713,0.5010388607461974
8826.653384790503,0.508222073011438
8834.78968921423,0.5220024454670713
8842.9334935869,0.5100856097297609
8851.084804821867,0.5068971828596055
8859.243629838873,0.5075384535947312
8867.409975564033,0.5082798693225461
8875.583848929844,0.5108944975728368
8883.765256875202,0.511008486258074
8891.954206345386,0.5108685777130532
8900.150704292088,0.5113314838367161
8908.354757673404,0.5123861052676709
8916.566373453841,0.5120894137567333
8924.785558604333,0.5093682008470929
8933.012320102234,0.5106670601886393
8941.24666493133,0.5079811514006635
8949.488600081846,0.511555426460739
8957.738132550452,0.5113776333022966
8965.995269340265,0.5127074964263526
8974.260017460856,0.5136610031851033
8982.532383928263,0.5141524872998191
8990.812375764986,0.5144287602820232
