3503.1,0.399169124446651
3506.32900188864,0.399169124446651
3509.5609801277124,0.3978164764722801
3512.7959374606835,0.3945340901244001
3516.033876633551,0.39320725484816493
3519.2748003948404,0.39378742763236335
3522.5187114956134,0.390132442637592
3525.7656126894676,0.38848532068562014
3529.0155067325377,0.381640361364113
3532.2683963834984,0.3804666004491538
3535.524284403569,0.3966406064422034
3538.783173556511,0.39612071447472497
3542.045066608637,0.3572166682309462
3545.3099663288085,0.3400666808245527
3548.577875488436,0.35956892798076123
3551.848796861488,0.31738666653077974
3555.1227332244903,0.30627846326490327
3558.3996873565247,0.29466928665808956
3561.679662039238,0.27554910000810523
3564.9626600568386,0.27041158757460465
3568.248684196102,0.3437980653059248
3571.537737246375,0.45068428906265695
3574.8298219995704,0.4558044704117045
3578.124941250178,0.40439385387895843
3581.423097795264,0.46561002097348175
3584.72429443447,0.5284955264243985
3588.028533970019,0.6413646168860535
3591.3358192067194,0.6569516147229777
3594.646152951963,0.7106805694104256
3597.959538015728,0.5029154653692434
3601.275977210585,0.35251324203610407
3604.5954733516974,0.4156322652895366
3607.918029256821,0.6111025736382298
3611.2436477463098,0.3500646074715168
3614.5723316431195,0.3485369043090687
3617.9040837728057,0.2536992648003617
3621.2389069635287,0.2426874728741304
3624.576804046057,0.34532503728863856
3627.917777853767,0.34422984664745127
3631.261831222646,0.6950372446201617
3634.608966991299,0.22811729276453346
3637.959188000943,0.3425241410820573
3641.312497095417,0.04296310504409326
3644.6688971211797,0.10456655982092893
3648.0283909273157,0.3033288009952735
3651.3909813655328,0.09706240736563174
3654.75667129017,0.04875664905039485
3658.1254635581945,0.04604905706016438
3661.49736102921,0.08484697822259006
3664.8723665654534,0.04360195857811104
3668.2504830318017,0.08416331390743066
3671.631713295773,0.08523515573223317
3675.0160602275255,0.08569430410879564
3678.4035266998676,0.4015838748646351
3681.7941155882504,0.5099326186885568
3685.1878297707804,0.5105175509059109
3688.584672128214,0.5298392826645207
3691.9846455439633,0.7497809825246963
3695.3877529041,0.531967591575707
3698.793997097353,0.8911862249707551
3702.2033810151174,0.7922919120204533
3705.6159075514506,0.8926122688592896
3709.031579603079,0.48637202895597775
3712.450400069399,0.3206988943103607
3715.8723718524793,0.1017969426612386
3719.2974978570637,0.24903024087381426
3722.725780990573,0.2893872950518126
3726.1572241631084,0.2509538407259326
3729.591830287454,0.5493378259525593
3733.029602279077,0.4384894775637309
3736.4705430561344,0.439046680266307
3739.9146555394723,0.4499216944390393
3743.3619426526266,0.5850891783255898
3746.8124073218305,0.4427158200785907
3750.266052476015,0.283001617089868
3753.722881046809,0.2804649742185246
3757.1828959685454,0.15113574881590416
3760.64610017826,0.2854489922360771
3764.1124966156963,0.2869059041772582
3767.5820882233093,0.32792590568776947
3771.0548779462633,0.631254604998742
3774.5308687324396,0.6606461752752514
3778.010063532437,0.7674301294708201
3781.492465299571,0.9199757587732219
3784.9780769898834,0.9244801132159959
3788.466901562138,0.9650727245072047
3791.9589419778254,0.9668898958330907
3795.454201201169,0.9276579853992576
3798.952682199121,0.6717487924965047
3802.454387941372,0.5685277386118851
3805.9593214003457,0.5249444801307139
3809.4674855512094,0.47590189960871576
3812.978883371871,0.5270132130327543
3816.4935178429832,0.527586144389962
3820.0113919479472,0.5744434950163104
3823.532508672913,0.6499403354800269
3827.056871006784,0.7182705915641043
3830.5844819412177,0.7982035295784481
3834.11534447063,0.7988507064313727
3837.6494615921974,1.0
3841.186836305857,0.8885646654320849
3844.7274716143133,0.8903227296000673
3848.271370523037,0.8909938990244023
3851.8185360402713,0.9957187334453141
3855.368971177028,0.7010197048196463
3858.9226789470995,0.6568817503183334
3862.4796623670522,0.703263297297889
3866.039924456236,0.6427786834800328
3869.6034682367813,0.4691411926408556
3873.170296733606,0.3906450607222088
3876.740412974416,0.3471450749197551
3880.313819989706,0.06573495873058935
3883.890520812767,0.181119224061013
3887.4705184796835,0.18248967049377063
3891.0538160293413,0.32476804365898265
3894.6404165034246,0.3698171267266968
3898.230322946422,0.37783405160298106
3901.8235384056297,0.5693434358481158
3905.4200659311514,0.597557994733568
3909.019908575902,0.5991514079268497
3912.6230693956113,0.6432434306901504
3916.229551448826,0.6275416405776315
3919.8393577969114,0.6022507998515658
3923.452491504055,0.6015964740090853
3927.0689556372677,0.6043901676684497
3930.6887532663886,0.6165537506734824
3934.3118874640872,0.6236198228737226
3937.9383613058617,0.6081167699836171
3941.56817787005,0.5275207207429894
3945.2013402378234,0.5290375256407267
3948.8378514931956,0.6223713876885898
3952.477714723023,0.6507482210630543
3956.1209330170054,0.6255206258927443
3959.7675094676924,0.5918432887172902
3963.417447170484,0.6067268391895773
3967.070749223632,0.5948944211320328
3970.7274187282464,0.5579950678607668
3974.3874587882933,0.588315748339761
3978.0508725106006,0.5898508565025851
3981.717663004862,0.59135416615176
3985.3878333836337,0.5918934773005611
3989.0613867623447,0.5934580599153412
3992.738326259292,0.6035474437048763
3996.418654995651,0.6153044481496602
4000.1023760954713,0.6231152934945244
4003.7894926856816,0.6071288757367262
4007.480007896096,0.626169862218094
4011.17392485941,0.6204970575243677
4014.871246711209,0.5416205137801717
4018.571976589967,0.4306680672680891
4022.276117637053,0.2624540543631405
4025.98367299673,0.2630231638526172
4029.6946458161588,0.26439303741270925
4033.4090392454036,0.2242211271996114
4037.126856437428,0.15450876795008034
4040.8481005481067,0.18551918048306265
4044.5727747362203,0.1608987484309245
4048.300882163461,0.14520347124784141
4052.0324259944364,0.1626673013481623
4055.7674093966716,0.10317129887603212
4059.505835540609,0.14247874075582773
4063.247707599616,0.11386387466631624
4066.9930287499838,0.030672736706350182
4070.741802170932,0.0
4074.494031044608,0.03231405880105494
4078.249718556098,0.06705165824248095
4082.008867893417,0.14141340012322992
4085.7714822475255,0.03610060825595761
4089.5375648123195,0.07082789910379818
4093.307118784643,0.08860316192310076
4097.080147364284,0.1077122988836462
4100.856653753983,0.1304509290206022
4104.636641159427,0.14893747999365964
4108.420112789266,0.31372437191801844
4112.2070718551,0.3856678818941506
4115.997521571495,0.4227771417530076
4119.791465155976,0.41734219959301316
4123.588905829034,0.4279921685535094
4127.389846814133,0.3820340554912261
4131.194291337703,0.3359676028304927
4135.002242629151,0.3026972081835977
4138.813703920859,0.2990094160057032
4142.62867844819,0.2994877550936106
4146.447169449487,0.19994111848113175
4150.269180166081,0.13571688727630749
4154.094713842289,0.11400572529201249
4157.923773725417,0.1329394130394275
4161.756363065769,0.07305914941003888
4165.592485116638,0.07111965359615252
4169.432143134321,0.17071471817226072
4173.275340378117,0.22442684651204176
4177.1220801103245,0.3797647389795422
4180.972365596254,0.5112748429029166
4184.826200104222,0.540185281578785
4188.683586905561,0.677613905736384
4192.544529274615,0.6826545783794825
4196.40903048875,0.7357956101990579
4200.277093828352,0.6856437044258678
4204.148722576827,0.7317924697924278
4208.023920020613,0.6314587264752269
4211.9026894491735,0.6258190864759798
4215.7850341550065,0.6272388630491702
4219.670957433642,0.5778244360003015
4223.56046258365,0.637388118465911
4227.4535529066425,0.6598540880879236
4231.350231707268,0.6613438443992772
4235.25050229323,0.6976099276565351
4239.154367975275,0.6643518542469871
4243.061832067203,0.6244483019832727
4246.972897885867,0.6291754509942474
4250.88756875118,0.6153463587080343
4254.805847986114,0.5488340282594144
4258.727738916703,0.5845567858103112
4262.653244872046,0.4951696358293436
4266.582369184317,0.506956418290835
4270.515115188752,0.5342709980625063
4274.451486223667,0.5365639903362974
4278.3914856304555,0.5525483797385139
4282.3351167535875,0.6331242466884404
4286.282382940619,0.6108083390120473
4290.233287542189,0.6697531524538272
4294.187833912028,0.6374801066088833
4298.146025406954,0.6895222497459876
4302.107865386884,0.706920918307387
4306.073357214828,0.7415227356807413
4310.042504256898,0.7430245404627265
4314.015309882305,0.7914014416042977
4317.991777463371,0.7929213000628809
4321.971910375524,0.7944407137476551
4325.955711997303,0.7954814056121676
4329.943185710362,0.7423459600841159
4333.93433489947,0.648531568527082
4337.929162952519,0.6318898195851069
4341.92767326052,0.5761861186014303
4345.929869217615,0.5874796114643419
4349.93575422107,0.5889047463546621
4353.945331671284,0.6280583746691729
4357.958604971791,0.6294985279788868
4361.975577529261,0.5776197410254436
4365.9962527535035,0.5616296809785808
4370.020634057473,0.5813892531197193
4374.048724857271,0.5570043983325749
4378.0805285721435,0.5575455047529644
4382.116048624492,0.4609299625779584
4386.155288439869,0.5326348970040713
4390.198251446989,0.5625826453854067
4394.244941077724,0.5243171431570581
4398.295360767111,0.5125282122434711
4402.349513953351,0.5199499514844215
4406.407404077814,0.5213597874923742
4410.469034585048,0.5729521919623262
4414.5344089227665,0.5321170006529274
4418.60353054187,0.5789462312144651
4422.676402896434,0.5994772102738962
4426.75302944372,0.6008484883880835
4430.833413644176,0.6022664891915072
4434.917558961441,0.5836052336324934
4439.005468862344,0.5743775650906132
4443.09714681691,0.5559950143494315
4447.192596298366,0.5296761822105385
4451.291820783134,0.5580757693128081
4455.394823750848,0.5610231968333317
4459.501608684345,0.5279937806909564
4463.612179069672,0.5302563278353303
4467.726538396089,0.5580790726532001
4471.8446901560765,0.5329674970372629
4475.9666378453285,0.4605501328942967
4480.092384962766,0.42153136905453353
4484.221935010532,0.41338942109566573
4488.355291493999,0.38099080596825025
4492.4924579217695,0.3368586751897965
4496.633437805682,0.2834905911290349
4500.77823466081,0.3062349699167555
4504.926852005468,0.2613179788561763
4509.079293361214,0.2625952628939478
4513.23556225285,0.20232138097077218
4517.395662208431,0.2658808135476948
4521.559596759259,0.31661705396052586
4525.7273694398955,0.19996037878491849
4529.898983788157,0.20118200401594866
4534.074443345121,0.29434814600849235
4538.253751655132,0.295579062339637
4542.436912265798,0.27713585948194897
4546.623928727999,0.21579775562025522
4550.814804595888,0.2169951247395936
4555.009543426892,0.21904007513119175
4559.208148781721,0.1644588284872949
4563.410624224364,0.16641966172276929
4567.616973322096,0.17566244384632593
4571.827199645479,0.14140307486743134
4576.041306768368,0.1390842173729248
4580.259298267912,0.1402954097274768
4584.481177724556,0.14221004097667023
4588.706948722047,0.1480731757152645
4592.936614847433,0.14535887611832812
4597.170179691071,0.16650565362945666
4601.4076468466255,0.1532154891922677
4605.649019911076,0.13038848522813776
4609.894302484713,0.13158962662661378
4614.143498171149,0.13207361240170676
4618.396610577319,0.13804565697500515
4622.65364331348,0.1503647589967744
4626.914599993218,0.16664267146684453
4631.179484233449,0.19500624005829625
4635.448299654427,0.24086748978729045
4639.721049879736,0.3230077769059329
4643.9977385363045,0.3246765154820969
4648.278369254404,0.3495837219483407
4652.5629456676525,0.32833726737857316
4656.851471413015,0.3532775312833691
4661.1439501308105,0.3786425397748761
4665.440385464714,0.4387312524904631
4669.740781061759,0.48214070081502847
4674.045140572338,0.48341104459232315
4678.353467650211,0.5017256190234503
4682.665765952507,0.49066041721245146
4686.982039139722,0.4830350871622533
4691.302290875729,0.4851220477127982
4695.626524827777,0.45784185451789244
4699.954744666497,0.45993806987092156
4704.286954065901,0.465178546409718
4708.623156703389,0.4672490610577823
4712.963356259752,0.41664496419102254
4717.3075564191695,0.40370834663866473
4721.655760869221,0.44555857218076894
4726.007973300883,0.4648773147370988
4730.364197408537,0.461561872478137
4734.724436889964,0.4636196734028043
4739.08869544636,0.4738066619444845
4743.456976782328,0.4891028652626393
4747.829284605889,0.49117005596584784
4752.205622628479,0.49247614018314284
4756.585994564957,0.4954036605805825
4760.970404133605,0.4966830235383915
4765.3588550561335,0.4979373730461638
4769.751351057683,0.5008636853823537
4774.147895866826,0.481641739183296
4778.548493215575,0.48366693944935846
4782.953146839381,0.48579536395131456
4787.361860477137,0.38282306580883074
4791.774637871184,0.38407759654303675
4796.191482767312,0.4113294961510268
4800.612398914764,0.4164559720101473
4805.037390066237,0.4112218986228812
4809.46645997789,0.4131978388692403
4813.899612409343,0.41867926497900004
4818.33685112368,0.4206807451404657
4822.778179887456,0.40955146186798147
4827.223602470697,0.3888049043560191
4831.673122646903,0.35520683834685113
4836.126744193054,0.3564145233404361
4840.584470889609,0.3914269156507138
4845.046306520516,0.3977661149714872
4849.512254873205,0.4081348648483004
4853.982319738601,0.4759372613066651
4858.456504911124,0.5476322006034509
4862.9348141886885,0.5622598306201769
4867.417251372711,0.5378275496736697
4871.903820268114,0.5266837832708825
4876.394524683323,0.5279696304323863
4880.889368430278,0.5245233899602818
4885.388355324431,0.5146855060079268
4889.891489184751,0.5286340904882484
4894.3987738337255,0.5479633993747937
4898.91021309737,0.5629443695113655
4903.42581080522,0.5647275962212706
4907.945570790347,0.591807493590353
4912.469496889353,0.6151665869692141
4916.997592942375,0.617230066045483
4921.529862793094,0.616592262094147
4926.066310288729,0.6151402096631475
4930.606939280048,0.5767968342608624
4935.151753621369,0.5626550392891294
4939.70075717056,0.5361571877039322
4944.253953789047,0.5661201983684726
4948.811347341816,0.5681965922088874
4953.372941697413,0.5408395471734506
4957.938740727952,0.4614780079432228
4962.5087483091165,0.5004684310864104
4967.082968320159,0.5090696277068105
4971.661404643912,0.4462172505185109
4976.244061166785,0.4481702734508753
4980.83094177877,0.4442209899609796
4985.422050373444,0.4450542069721638
4990.017390847975,0.3959237399307144
4994.616967103118,0.3978930178245418
4999.220783043232,0.41184018004562817
5003.828842576268,0.4280616571811702
5008.441149613781,0.4470753651360848
5013.057708070933,0.4319712389960197
5017.678521866492,0.4465973726941622
5022.3035949228415,0.39816863970424954
5026.9329311659785,0.39713106422147615
5031.566534525518,0.3752265310796052
5036.2044089347,0.37033363702281324
5040.846558330386,0.37227071843229453
5045.492986653071,0.30914434478535213
5050.143697846877,0.3047764872851751
5054.7986958595675,0.3066267810985453
5059.457984642539,0.3148003724039211
5064.121568150835,0.32560533332988983
5068.789450343139,0.363826258585005
5073.46163518179,0.36906444370151503
5078.138126632776,0.3709857292724252
5082.81892866574,0.37068223446669973
5087.504045253984,0.36998475143767884
5092.193480374474,0.3325353898002721
5096.887238007844,0.2865397890017635
5101.585322138389,0.2883865995444377
5106.287736754086,0.2868548276475585
5110.994485846581,0.29205388049213016
5115.705573411203,0.305408901225997
5120.421003446964,0.3289973401327532
5125.1407799565595,0.2965060515677756
5129.864906946377,0.3105019654923119
5134.593388426494,0.32718262175377316
5139.3262284106895,0.31484488727582643
5144.063430916434,0.30285364860102953
5148.80499996491,0.29322525284812595
5153.550939581001,0.31417327133583206
5158.301253793303,0.2988473281722118
5163.055946634122,0.27653751752100525
5167.815022139485,0.25353526808584415
5172.578484349138,0.24986269133993055
5177.346337306548,0.2516380000347542
5182.118585058914,0.2562485906414979
5186.895231657159,0.25527841112402677
5191.676281155946,0.2664965822594957
5196.461737613673,0.2789585739614869
5201.251605092478,0.28503732026734535
5206.045887658245,0.2608447133503265
5210.844589380605,0.2489721425385362
5215.647714332939,0.26440166848989766
5220.455266592385,0.2103793176912966
5225.267250239836,0.17494099196186494
5230.083669359952,0.20841378332202834
5234.904528041152,0.1969066442707552
5239.729830375627,0.21192400035545383
5244.559580459338,0.19800641661681362
5249.393782392023,0.19972837047153186
5254.2324402772,0.1919440577429565
5259.075558222166,0.19080548642631104
5263.923140338007,0.15607187484049365
5268.775190739598,0.1120725461039593
5273.631713545604,0.1107423220813524
5278.492712878489,0.10816481026415009
5283.358192864519,0.09647790723094089
5288.228157633759,0.07436057526908124
5293.102611320082,0.09340401018359891
5297.981558061175,0.08483541051681939
5302.865001998534,0.09388289378605852
5307.752947277476,0.09553302613294752
5312.645398047135,0.10306953888945485
5317.542358460475,0.13697337949336366
5322.443832674285,0.15017312677360978
5327.349824849183,0.1403453861961684
5332.260339149629,0.1508623451938424
5337.175379743912,0.17159066371344317
5342.094950804172,0.16737985250691448
5347.019056506392,0.1434520814576792
5351.947701030401,0.12439044204891267
5356.880888559884,0.12671388543052375
5361.818623282382,0.1284014628556411
5366.760909389294,0.16204995923188797
5371.707751075886,0.1863666159223143
5376.659152541289,0.21858878790873662
5381.615117988501,0.24119773693695012
5386.575651624401,0.24288399075263695
5391.540757659742,0.19574600578326834
5396.510440309156,0.24698919404385677
5401.484703791166,0.21747499951055715
5406.463552328177,0.2973296556496273
5411.446990146491,0.33446727615206134
5416.435021476302,0.3305515078898455
5421.427650551705,0.3386458426079897
5426.424881610698,0.3201128270799151
5431.426718895186,0.32253703323758887
5436.433166650981,0.3180861517234128
5441.44422912781,0.3446892905987572
5446.45991057932,0.3295637483930294
5451.480215263077,0.3807395359480828
5456.505147440568,0.3634572703535693
5461.534711377214,0.36586791518306105
5466.568911342362,0.3489347720564878
5471.6077516093,0.3513312156560667
5476.65123645525,0.35305109177326
5481.699370161378,0.37416157317964815
5486.752157012798,0.37798573391484963
5491.809601298573,0.3803880121832403
5496.871707311719,0.39702040685965667
5501.938479349206,0.46081191043146397
5507.009921711971,0.49018549296315395
5512.0860387049115,0.49884389534878937
5517.166834636894,0.5029259843656715
5522.252313820756,0.4654355499204995
5527.342480573311,0.43434377391049933
5532.437339215352,0.3902933562932644
5537.536894071654,0.3883549651497062
5542.641149470979,0.38582276156068745
5547.750109746078,0.38312430566852684
5552.863779233696,0.3842372879668467
5557.982162274577,0.38723739114081906
5563.105263213463,0.3938748418136859
5568.233086399106,0.43699047465355023
5573.3656361842595,0.4518223416487749
5578.502916925695,0.4442313948245466
5583.644932984197,0.44172712488306154
5588.791688724572,0.44415572404540443
5593.9431885156455,0.4038049428509087
5599.099436730274,0.3606814090892657
5604.260437745343,0.33020456808307924
5609.426195941773,0.26409467135282333
5614.596715704521,0.21821388262799074
5619.77200142259,0.17694149609519647
5624.952057489023,0.22550310732975473
5630.136888300916,0.23760992910221676
5635.326498259418,0.23989328458746315
5640.520891769734,0.24985829000591125
5645.7200732411275,0.24755899141398546
5650.924047086931,0.21549849242602126
5656.13281772454,0.21773588508874933
5661.346389575424,0.21468754335319826
5666.56476706513,0.2162816392554513
5671.787954623281,0.2238217435471864
5677.015956683583,0.2886326189457026
5682.2487776838325,0.2836816312030577
5687.486422065913,0.3010761419629412
5692.728894275804,0.30331941577939875
5697.976198763582,0.29042899209060813
5703.228339983426,0.2579605299133391
5708.485322393621,0.28182974583231046
5713.747150456562,0.25664546019201295
5719.013828638754,0.2691090262521131
5724.285361410823,0.32032550043071556
5729.561753247514,0.33882357476494923
5734.843008627697,0.34082949126999706
5740.12913203437,0.31463252896411675
5745.420127954663,0.2619751019945189
5750.716000879844,0.2629874732834474
5756.016755305316,0.30617340236631874
5761.322395730634,0.2937806746928377
5766.632926659491,0.2885174210802042
5771.948352599738,0.2711239089167032
5777.268678063379,0.25682637976636824
5782.5939075665765,0.25888081974915167
5787.924045629657,0.26104468314745827
5793.25909677711,0.25643123922912914
5798.599065537602,0.2870346655571459
5803.943956443967,0.3285437263893134
5809.293774033223,0.31729077539508566
5814.648522846565,0.3476120951839723
5820.008207429378,0.3702700910019116
5825.372832331234,0.37266861070260743
5830.742402105901,0.3619258772451901
5836.116921311341,0.3745411649253651
5841.49639450972,0.3526655465269854
5846.880826267408,0.36791697365207277
5852.270221154986,0.3811804155615148
5857.664583747246,0.39957785277329594
5863.063918623196,0.41699957446796176
5868.4682303660675,0.424152943439797
5873.877523563316,0.40621646873119177
5879.291802806622,0.3812907935097859
5884.711072691905,0.3688804263915544
5890.1353378193135,0.3705322750312151
5895.564602793241,0.3732198910795928
5900.998872222325,0.39890054812968034
5906.438150719448,0.4378877715609754
5911.882442901747,0.4401134649257031
5917.331753390614,0.44789097143546613
5922.7860868117,0.45596052378080343
5928.245447794924,0.45776513256286205
5933.709840974466,0.4480649500430257
5939.179270988783,0.4436940212083086
5944.653742480604,0.430241609737834
5950.133260096938,0.4200321827786176
5955.617828489081,0.4322574902961387
5961.107452312613,0.45242397507585136
5966.602136227405,0.44814499195933294
5972.101884897624,0.4592805548981426
5977.606702991737,0.4610966439901954
5983.116595182513,0.45709902757412385
5988.631566147031,0.428493983379189
5994.151620566677,0.4675976957304426
5999.676763127154,0.44808167911472724
6005.206998518484,0.45203854642600855
6010.742331435014,0.45420633996777826
6016.282766575414,0.4751003636803505
6021.828308642688,0.4654494293191642
6027.3789623441735,0.474636935029066
6032.934732391549,0.46156543994055665
6038.495623500835,0.4637191467533441
6044.061640392397,0.45675585920550604
6049.632787790954,0.4636988212564905
6055.209070425581,0.49750584255824143
6060.790493029707,0.5183964778524258
6066.377060341131,0.5158938204779183
6071.9687771020135,0.506036469786238
6077.565648058889,0.5088202325683064
6083.167677962664,0.4946921213075695
6088.77487156863,0.5034200376724748
6094.387233636457,0.4908827666256412
6100.004768930201,0.49359701657206373
6105.627482218315,0.49572015044087414
6111.255378273643,0.48213013090499773
6116.888461873429,0.4841979526490384
6122.526737799321,0.4686072169575793
6128.170210837376,0.47682243026279153
6133.818885778057,0.5135705765379172
6139.472767416251,0.514455702667666
6145.131860551259,0.5064988759602514
6150.796169986806,0.514844736098259
6156.465700531046,0.5118196319186862
6162.140456996567,0.5034253823125395
6167.82044420039,0.5054673444502812
6173.505666963975,0.5038609159356789
6179.196130113232,0.515353769332771
6184.891838478513,0.5025893424460394
6190.592796894625,0.4950131050829016
6196.299010200833,0.4916880589721265
6202.010483240861,0.46918681603508633
6207.7272208628965,0.4685708496208626
6213.449227919598,0.47060398679756327
6219.176509268096,0.4758470808011244
6224.909069769999,0.4975410966671225
6230.646914291395,0.47568982935249354
6236.390047702859,0.478325751561665
6242.138474879454,0.47133054382043904
6247.892200700739,0.4827683602408179
6253.6512300507675,0.48477860366141007
6259.415567818097,0.49325653001830466
6265.185218895792,0.5082748696061163
6270.960188181423,0.5172908902558089
6276.74048057708,0.5160259699284209
6282.526100989369,0.47907014659836145
6288.317054329419,0.4843233242598092
6294.113345512886,0.47012028151254354
6299.914979459955,0.45159123851361077
6305.721961095349,0.4582762098518748
6311.534295348331,0.4778353546332133
6317.351987152704,0.4797749210448328
6323.1750414468215,0.4996308745241716
6329.003463173588,0.5119489969970299
6334.837257280465,0.5145233705090878
6340.676428719473,0.5177978680116547
6346.520982447198,0.5172780900544761
6352.370923424794,0.515956176771768
6358.226256617991,0.5069338060355
6364.086986997089,0.5120701565723371
6369.953119536979,0.5113730603717794
6375.824659217129,0.5361107334322345
6381.701611021603,0.5201633397454836
6387.583979939057,0.5442048169093318
6393.471770962742,0.521682638703359
6399.364989090517,0.5242065471399124
6405.263639324845,0.5221196992399646
6411.167726672798,0.5240066529558806
6417.077256146071,0.5197915785328103
6422.992232760968,0.5429424731297892
6428.912661538426,0.5338422974624445
6434.838547504002,0.5322538616339494
6440.769895687892,0.5180425510644833
6446.706711124927,0.4914145782286835
6452.648998854576,0.47800885429951473
6458.596763920957,0.4660872731596559
6464.550011372833,0.44686591750360793
6470.508746263624,0.42440071584309585
6476.47297365141,0.4144917889926109
6482.442698598928,0.38439555666532843
6488.417926173584,0.3958166183356897
6494.398661447457,0.38993862799408746
6500.384909497298,0.3930691986853916
6506.37667540454,0.3940306730803224
6512.373964255297,0.3851569697434887
6518.376781140374,0.368638889463312
6524.385131155267,0.36846630532393027
6530.39901940017,0.34315024442504727
6536.418450979977,0.354965715601725
6542.443431004285,0.3435749757802119
6548.473964587409,0.3493536567377211
6554.510056848368,0.34370947976153304
6560.551712910906,0.33469867125178
6566.598937903487,0.32686510889061465
6572.651736959306,0.3218842196070528
6578.710115216283,0.32895299340223905
6584.77407781708,0.34772584603273865
6590.843629909096,0.3617056714519146
6596.918776644477,0.3647634266353864
6602.999523180114,0.3746056528871719
6609.085874677657,0.37233031427016666
6615.177836303508,0.37259387718357695
6621.275413228836,0.39084174266297017
6627.378610629575,0.3856232360014025
6633.487433686426,0.4078976415609785
6639.601887584872,0.4017230303314055
6645.721977515172,0.4123774364996962
6651.847708672369,0.4169298575050152
6657.979086256296,0.4130024873235132
6664.116115471576,0.415224104245628
6670.258801527634,0.4254534915022681
6676.407149638694,0.42724300749301736
6682.561165023786,0.44150955760184546
6688.720852906752,0.4463343165787269
6694.886218516248,0.4453376063778255
6701.05726708575,0.4483301519658896
6707.2340038535585,0.4505294110810472
6713.4164340628,0.4524859123512578
6719.604562961439,0.44129858161972574
6725.798395802271,0.44266645538712523
6731.997937842938,0.4093370273178849
6738.203194345927,0.41391758967815406
6744.414170578574,0.4160629065749015
6750.630871813072,0.45581194910593287
6756.853303326475,0.4579665778142037
6763.081470400696,0.4601161714707287
6769.315378322524,0.45572701753910877
6775.555032383615,0.4556624498575479
6781.800437880505,0.45249899207211186
6788.051600114612,0.45462056042283977
6794.30852439224,0.45638275020062663
6800.571216024586,0.458493855926659
6806.839680327739,0.4605997753271965
6813.113922622693,0.45996594549889863
6819.393948235342,0.4592761512286405
6825.679762496491,0.4641489068665174
6831.971370741862,0.46176419076046515
6838.268778312089,0.475366681922535
6844.571990552735,0.4821081968691366
6850.881012814282,0.4808124626010698
6857.1958504521535,0.4582754703655216
6863.516508826705,0.4433974122703798
6869.84299330323,0.4646799927536695
6876.175309251973,0.4431886377689879
6882.513462048124,0.4457889808945237
6888.85745707183,0.4537420961163005
6895.2072997082,0.41166406799657684
6901.562995347297,0.42862861436546673
6907.924549384164,0.4150032006727828
6914.29196721881,0.42475835819119123
6920.665254256222,0.42673120979935164
6927.044415906374,0.40410392369524006
6933.429457584218,0.43066012527832026
6939.820384709706,0.4397135049143066
6946.2172027077795,0.4416667227488354
6952.619917008385,0.46020526054773964
6959.028533046472,0.4621363385429106
6965.443056261997,0.4661301998301523
6971.8634920999375,0.4606836817362586
6978.289846010284,0.46261290411672973
6984.722123448053,0.46979708560347344
6991.160329873289,0.48913652684848
6997.604470751068,0.4913803575639498
7004.054551551506,0.49054035805480123
7010.510577749759,0.4644276485242928
7016.972554826031,0.4769940361598749
7023.440488265578,0.44369689400673357
7029.914383558707,0.462204638750804
7036.394246200793,0.46407168678483496
7042.880081692274,0.4550393723921375
7049.371895538652,0.4540050927518312
7055.8696932505145,0.4376079671143762
7062.373480343521,0.4554120762019986
7068.883262338413,0.44182169161516877
7075.399044761031,0.4449482885361987
7081.920833142299,0.4290205163960971
7088.448633018243,0.4163240225995169
7094.982449929992,0.3909555241837155
7101.522289423781,0.37809688783706524
7108.068157050961,0.38197371624178633
7114.620058367995,0.3886793916149018
7121.177998936472,0.4047666935437953
7127.741984323104,0.3917085917861277
7134.3120200997355,0.3888749189281757
7140.888111843351,0.38813296559802085
7147.470265136065,0.39041538506897766
7154.058485565151,0.398474476774265
7160.652778723021,0.40241815512330736
7167.253150207247,0.405592182594152
7173.859605620562,0.39275613855279495
7180.47215057086,0.4094357679208889
7187.090790671206,0.39793615327966875
7193.71553153984,0.3995989521036315
7200.346378800176,0.43605998060026735
7206.983338080818,0.39495011114292067
7213.626415015551,0.3717897845615624
7220.275615243358,0.37554193416517223
7226.93094440842,0.3525944783378743
7233.592408160117,0.36743813397826597
7240.260012153038,0.3829632518024952
7246.933762046987,0.37310310428202315
7253.613663506979,0.37843876026271556
7260.299722203257,0.3543032927746186
7266.9919438112875,0.37001342552593186
7273.690334011768,0.3579584892851473
7280.394898490634,0.3600633896779742
7287.105642939057,0.36499315003923327
7293.822573053462,0.34208732193160263
7300.545694535521,0.3436031415755759
7307.27501309216,0.3383456695044828
7314.010534435568,0.3197012995249569
7320.752264283196,0.3001973811900075
7327.500208357769,0.30043430093599593
7334.254372387287,0.30696649100767703
7341.0147621050255,0.3395205664259965
7347.781383249547,0.3626582174532936
7354.554241564705,0.34813059182386813
7361.333342799647,0.3301313088854328
7368.118692708816,0.3298116838778982
7374.910297051965,0.33226688860970555
7381.708161594151,0.3638676846094498
7388.512292105749,0.35550381245579626
7395.322694362451,0.3515975757920496
7402.139374145274,0.3369040409568826
7408.9623372405595,0.33542550271152777
7415.791589439988,0.3271447686155655
7422.627136540574,0.3221927340079355
7429.468984344681,0.3329634236890522
7436.317138660015,0.318837495023254
7443.171605299637,0.3331826177435713
7450.0323900819685,0.3380598117366909
7456.899498830794,0.3175900021244011
7463.772937375264,0.3464723732695581
7470.652711549899,0.3841677896144114
7477.538827194606,0.3755018644224379
7484.431290154667,0.36506243798439053
7491.330106280759,0.34289705603722453
7498.235281428945,0.3080394416753213
7505.14682146069,0.2744251713393562
7512.064732242859,0.2725143419878912
7518.989019647731,0.2264974912278738
7525.919689552988,0.2829700287760847
7532.856747841741,0.405875327393108
7539.80020040251,0.39832428901603667
7546.750053129258,0.35813169387513055
7553.7063119213735,0.37188134210522905
7560.668982683677,0.3616068611946106
7567.638071326443,0.37529899493129126
7574.613583765386,0.37702853775024747
7581.595525921675,0.3717838952320988
7588.583903721942,0.3644271584336046
7595.578723098272,0.3501668857300065
7602.579989988228,0.26235419627126616
7609.587710334838,0.2951858525770064
7616.601890086615,0.308094141458386
7623.622535197549,0.33902061411903306
7630.649651627122,0.3794215925516398
7637.683245340307,0.35366861804075933
7644.7233223075755,0.3826507261016215
7651.769888504905,0.3834450288800513
7658.822949913779,0.37459106601773906
7665.882512521193,0.40301073676428234
7672.9485823196665,0.3891440030513791
7680.021165307234,0.40619339641441526
7687.100267487468,0.4080175424100532
7694.185894869469,0.395142727124581
7701.278053467878,0.39287222791800064
7708.376749302878,0.3760969696130554
7715.481988400207,0.4002654350982111
7722.59377679115,0.4522363680611139
7729.712120512558,0.4525343861906812
7736.837025606842,0.44666147744658663
7743.9684981219825,0.43300512105706657
7751.106544111536,0.4350289508116957
7758.251169634642,0.4138326285459008
7765.40238075602,0.3953947822735299
7772.56018354598,0.3790002820949442
7779.7245840804335,0.3788000629310275
7786.895588440884,0.3662647152823116
7794.073202714449,0.3555774378171266
7801.25743299385,0.3665697244083751
7808.448285377426,0.35884484256866883
7815.6457659691405,0.3744702872017343
7822.849880878581,0.39021888973992197
7830.0606362209655,0.39210095902010905
7837.2780381171515,0.39344575271039095
7844.502092693636,0.40733232253946833
7851.732806082563,0.41253853860204437
7858.970184421732,0.40463051195621236
7866.2142338545955,0.39548657338804416
7873.464960530274,0.36730223368982223
7880.722370603551,0.36857312547750604
7887.986470234885,0.3950385852174181
7895.257265590417,0.3944969339035715
7902.534762841964,0.3957283164874708
7909.818968167037,0.39350777395547465
7917.109887748841,0.40057663065643057
7924.407527776278,0.41605500946810975
7931.711894443957,0.41297634879381373
7939.022993952196,0.4199215635548625
7946.340832507028,0.3820092574094987
7953.6654163202065,0.3579526129607348
7960.996751609212,0.3493761202803037
7968.334844597253,0.35050789123531945
7975.679701513278,0.3501563625801958
7983.031328591973,0.37110331504481103
7990.389732073775,0.39837645554367956
7997.75491820487,0.3914430304193724
8005.126893237204,0.37204412613415255
8012.505663428482,0.32459594086232113
8019.891235042182,0.32252000105624135
8027.283614347553,0.31353555312966175
8034.682807619621,0.3150291551029958
8042.088821139198,0.32954161569094276
8049.501661192885,0.34628447601281337
8056.92133407308,0.3590428953775178
8064.347846077975,0.3724860240031311
8071.781203511575,0.3854630766258895
8079.221412683688,0.37280845711713434
8086.668479909945,0.36074772883747
8094.122411511796,0.31823819105532547
8101.583213816512,0.3163214006632163
8109.0508931572085,0.30798807125642247
8116.525455872828,0.297028926312893
8124.00690830816,0.31632520340882453
8131.495256813843,0.3285769119148611
8138.990507746366,0.3221713865062236
8146.492667468081,0.3307514991241598
8154.001742347204,0.35220796298785045
8161.517738757815,0.3711512270827601
8169.04066307988,0.35437136162273225
8176.5705216992355,0.35120559207840113
8184.10732100761,0.34273182065632757
8191.651067402623,0.37393431500817825
8199.20176728779,0.38335392905871885
8206.759427072528,0.386640356567352
8214.324053172166,0.3932267021997436
8221.895652007937,0.4097641536696109
8229.474230007008,0.3740235683233401
8237.059793602455,0.3752354656661435
8244.652349233293,0.377611662678948
8252.251903344468,0.39596418805254024
8259.858462386868,0.4378359503974434
8267.472032817332,0.42246748278836505
8275.092621098638,0.3848428110930099
8282.720233699536,0.4036563751285027
8290.354877094729,0.38705606673696663
8297.996557764889,0.4071222221023904
8305.645282196665,0.4081950838774253
8313.301056882683,0.4269953117928372
8320.963888321554,0.47045568794375175
8328.633783017882,0.4567770596187678
8336.310747482257,0.4845511605170805
8343.994788231284,0.48487363366645675
8351.685911787565,0.5035527851387067
8359.384124679715,0.4859198579119036
8367.089433442374,0.48224504059444656
8374.801844616191,0.4676295268287559
8382.521364747865,0.4670359331898799
8390.248000390106,0.47186621862518086
8397.981758101681,0.4849544406078516
8405.722644447398,0.48907672966985366
8413.470665998113,0.4892935360779069
8421.22582933074,0.5060381909066155
8428.988141028261,0.5104657654444742
8436.757607679714,0.4839903381789088
8444.534235880223,0.4656102537732138
8452.318032230982,0.4834432349448307
8460.109003339277,0.4971164566178329
8467.907155818477,0.5114403519420379
8475.712496288052,0.5118436154866697
8483.525031373574,0.5126251669789769
8491.344767706716,0.5073226729191583
8499.17171192527,0.5074900620004755
8507.005870673149,0.5068247162024189
8514.847250600378,0.48779500600810144
8522.695858363124,0.47004091610949106
8530.551700623682,0.4712045872534569
8538.414784050494,0.4641820866660297
8546.28511531814,0.45950739013418457
8554.162701107363,0.4712708551750946
8562.047548105054,0.46440024807280317
8569.939663004276,0.46548577187377876
8577.839052504254,0.4661240347438108
8585.745723310394,0.47421174293061186
8593.659682134281,0.4747321200446722
8601.580935693684,0.48982186173542436
8609.509490712568,0.47775320968939844
8617.44535392109,0.47712229109120635
8625.38853205562,0.48801946337006047
8633.339031858726,0.48153713119666486
8641.296860079201,0.48137906860353297
8649.262023472053,0.5160318245448768
8657.234528798519,0.5178516380718852
8665.214382826063,0.4786024026239824
8673.201592328396,0.47177454151252285
8681.196164085466,0.47584498962893557
8689.19810488347,0.4434186718531181
8697.207421514864,0.4428739899648343
8705.224120778366,0.4407961818972904
8713.248209478954,0.45365140448401786
8721.279694427885,0.4516759797315934
8729.318582442693,0.4109180146581155
8737.364880347192,0.4243106134521391
8745.418594971492,0.4294027602162073
8753.479733151993,0.4295527568827184
8761.548301731402,0.4501281805498619
8769.624307558726,0.46377140649055365
8777.707757489296,0.44928967574141515
8785.79865838475,0.42016790390367975
8793.89701711306,0.4304940068883359
8802.002840548523,0.41752756650682227
8810.116135571774,0.42401396357475835
8818.23690906979,0.42330594483924366
8826.365167935897,0.41553559432900683
8834.500919069778,0.40850282240120345
8842.644169377469,0.3995893339832143
8850.794925771377,0.39484741351357194
8858.953195170276,0.392779928026337
8867.118984499324,0.39753454706366725
8875.292300690055,0.4088400279338738
8883.473150680395,0.4070386480710022
8891.661541414669,0.4058411177550227
8899.857479843597,0.4095361292745377
8908.060972924311,0.4087264422583562
8916.27202762035,0.40524873063429256
8924.490650901678,0.4003827093575513
8932.71684974468,0.3984392850492225
8940.95063113217,0.383727988213682
8949.192002053402,0.38841249404928857
8957.44096950407,0.39226782527958687
8965.697540486319,0.39527626301672897
8973.961722008744,0.39743683907960553
8982.233521086404,0.3987357909437724
8990.512944740825,0.399169124446651
